#  SO LAT noise power spectra
#  baseline sensitivity
#  fsky = 0.2 
#  polarization (EE or BB) 
#  units = uK^2 
#  columns: [ell] [27 GHz] [39 GHz] [93 GHz] [145 GHz] [225 GHz] [280 GHz] [27x39 GHz] [93x145 GHz] [225x280 GHz]
2 1.57415e+00 3.93536e-01 1.99227e-02 3.06698e-02 1.53725e-01 8.85455e-01 7.08172e-01 2.22410e-02 3.31954e-01
3 8.92507e-01 2.23125e-01 1.12957e-02 1.73890e-02 8.71580e-02 5.02030e-01 4.01433e-01 1.26074e-02 1.88170e-01
4 5.96766e-01 1.49190e-01 7.55271e-03 1.16269e-02 5.82770e-02 3.35676e-01 2.68349e-01 8.42775e-03 1.25787e-01
5 4.36766e-01 1.09190e-01 5.52770e-03 8.50953e-03 4.26519e-02 2.45675e-01 1.96349e-01 6.16649e-03 9.20370e-02
6 3.38473e-01 8.46168e-02 4.28367e-03 6.59443e-03 3.30529e-02 1.90385e-01 1.52117e-01 4.77732e-03 7.13032e-02
7 2.72859e-01 6.82130e-02 3.45322e-03 5.31600e-03 2.66451e-02 1.53476e-01 1.22591e-01 3.84999e-03 5.74624e-02
8 2.26410e-01 5.66007e-02 2.86535e-03 4.41101e-03 2.21091e-02 1.27348e-01 1.01689e-01 3.19353e-03 4.76645e-02
9 1.92060e-01 4.80131e-02 2.43059e-03 3.74173e-03 1.87545e-02 1.08026e-01 8.62311e-02 2.70806e-03 4.04186e-02
10 1.65783e-01 4.14437e-02 2.09801e-03 3.22974e-03 1.61883e-02 9.32443e-02 7.44061e-02 2.33667e-03 3.48756e-02
11 1.45131e-01 3.62805e-02 1.83662e-03 2.82735e-03 1.41714e-02 8.16271e-02 6.51126e-02 2.04479e-03 3.05191e-02
12 1.28538e-01 3.21323e-02 1.62661e-03 2.50405e-03 1.25509e-02 7.22932e-02 5.76457e-02 1.81028e-03 2.70189e-02
13 1.14960e-01 2.87377e-02 1.45476e-03 2.23949e-03 1.12249e-02 6.46553e-02 5.15356e-02 1.61837e-03 2.41547e-02
14 1.03676e-01 2.59165e-02 1.31193e-03 2.01962e-03 1.01228e-02 5.83074e-02 4.64575e-02 1.45888e-03 2.17742e-02
15 9.41721e-02 2.35405e-02 1.19165e-03 1.83445e-03 9.19468e-03 5.29613e-02 4.21809e-02 1.32456e-03 1.97694e-02
16 8.60759e-02 2.15164e-02 1.08917e-03 1.67669e-03 8.40398e-03 4.84069e-02 3.85375e-02 1.21013e-03 1.80615e-02
17 7.91091e-02 1.97746e-02 1.00099e-03 1.54094e-03 7.72356e-03 4.44877e-02 3.54024e-02 1.11166e-03 1.65918e-02
18 7.30607e-02 1.82624e-02 9.24434e-04 1.42309e-03 7.13284e-03 4.10851e-02 3.26805e-02 1.02618e-03 1.53158e-02
19 6.77682e-02 1.69392e-02 8.57443e-04 1.31996e-03 6.61593e-03 3.81077e-02 3.02988e-02 9.51369e-04 1.41993e-02
20 6.31044e-02 1.57732e-02 7.98410e-04 1.22908e-03 6.16042e-03 3.54840e-02 2.82000e-02 8.85447e-04 1.32154e-02
21 5.89685e-02 1.47391e-02 7.46057e-04 1.14849e-03 5.75646e-03 3.31572e-02 2.63388e-02 8.26987e-04 1.23429e-02
22 5.52796e-02 1.38168e-02 6.99363e-04 1.07660e-03 5.39616e-03 3.10819e-02 2.46787e-02 7.74845e-04 1.15646e-02
23 5.19724e-02 1.29899e-02 6.57499e-04 1.01215e-03 5.07313e-03 2.92212e-02 2.31904e-02 7.28096e-04 1.08669e-02
24 4.89931e-02 1.22450e-02 6.19785e-04 9.54096e-04 4.78213e-03 2.75450e-02 2.18496e-02 6.85983e-04 1.02383e-02
25 4.62975e-02 1.15711e-02 5.85663e-04 9.01566e-04 4.51883e-03 2.60284e-02 2.06366e-02 6.47879e-04 9.66960e-03
26 4.38489e-02 1.09588e-02 5.54666e-04 8.53847e-04 4.27965e-03 2.46508e-02 1.95346e-02 6.13265e-04 9.15297e-03
27 4.16163e-02 1.04006e-02 5.26403e-04 8.10338e-04 4.06157e-03 2.33946e-02 1.85299e-02 5.81705e-04 8.68192e-03
28 3.95738e-02 9.88992e-03 5.00546e-04 7.70532e-04 3.86205e-03 2.22454e-02 1.76106e-02 5.52831e-04 8.25095e-03
29 3.76991e-02 9.42119e-03 4.76813e-04 7.33997e-04 3.67893e-03 2.11906e-02 1.67670e-02 5.26329e-04 7.85540e-03
30 3.59735e-02 8.98970e-03 4.54967e-04 7.00364e-04 3.51036e-03 2.02196e-02 1.59904e-02 5.01934e-04 7.49128e-03
31 3.43806e-02 8.59141e-03 4.34801e-04 6.69319e-04 3.35475e-03 1.93233e-02 1.52735e-02 4.79415e-04 7.15517e-03
32 3.29064e-02 8.22280e-03 4.16137e-04 6.40588e-04 3.21074e-03 1.84938e-02 1.46101e-02 4.58574e-04 6.84411e-03
33 3.15389e-02 7.88084e-03 3.98823e-04 6.13933e-04 3.07714e-03 1.77242e-02 1.39946e-02 4.39239e-04 6.55553e-03
34 3.02673e-02 7.56288e-03 3.82724e-04 5.89148e-04 2.95291e-03 1.70087e-02 1.34223e-02 4.21261e-04 6.28720e-03
35 2.90825e-02 7.26660e-03 3.67722e-04 5.66054e-04 2.83715e-03 1.63419e-02 1.28891e-02 4.04509e-04 6.03716e-03
36 2.79762e-02 6.98996e-03 3.53715e-04 5.44490e-04 2.72907e-03 1.57194e-02 1.23912e-02 3.88868e-04 5.80370e-03
37 2.69413e-02 6.73118e-03 3.40611e-04 5.24317e-04 2.62796e-03 1.51370e-02 1.19254e-02 3.74235e-04 5.58530e-03
38 2.59715e-02 6.48865e-03 3.28331e-04 5.05412e-04 2.53320e-03 1.45912e-02 1.14889e-02 3.60522e-04 5.38062e-03
39 2.50611e-02 6.26098e-03 3.16802e-04 4.87664e-04 2.44424e-03 1.40788e-02 1.10791e-02 3.47648e-04 5.18847e-03
40 2.42050e-02 6.04690e-03 3.05962e-04 4.70976e-04 2.36059e-03 1.35969e-02 1.06939e-02 3.35543e-04 5.00779e-03
41 2.33988e-02 5.84529e-03 2.95753e-04 4.55259e-04 2.28182e-03 1.31432e-02 1.03310e-02 3.24143e-04 4.83764e-03
42 2.26385e-02 5.65515e-03 2.86125e-04 4.40437e-04 2.20752e-03 1.27153e-02 9.98881e-03 3.13391e-04 4.67716e-03
43 2.19205e-02 5.47558e-03 2.77032e-04 4.26438e-04 2.13735e-03 1.23111e-02 9.66562e-03 3.03237e-04 4.52560e-03
44 2.12415e-02 5.30576e-03 2.68432e-04 4.13199e-04 2.07100e-03 1.19289e-02 9.35999e-03 2.93634e-04 4.38226e-03
45 2.05985e-02 5.14496e-03 2.60289e-04 4.00663e-04 2.00816e-03 1.15669e-02 9.07059e-03 2.84541e-04 4.24654e-03
46 1.99890e-02 4.99251e-03 2.52569e-04 3.88778e-04 1.94859e-03 1.12238e-02 8.79624e-03 2.75920e-04 4.11787e-03
47 1.94105e-02 4.84782e-03 2.45242e-04 3.77497e-04 1.89205e-03 1.08981e-02 8.53583e-03 2.67737e-04 3.99574e-03
48 1.88608e-02 4.71033e-03 2.38279e-04 3.66778e-04 1.83832e-03 1.05887e-02 8.28840e-03 2.59962e-04 3.87969e-03
49 1.83379e-02 4.57955e-03 2.31657e-04 3.56582e-04 1.78722e-03 1.02943e-02 8.05305e-03 2.52567e-04 3.76930e-03
50 1.78401e-02 4.45503e-03 2.25350e-04 3.46874e-04 1.73855e-03 1.00140e-02 7.82895e-03 2.45524e-04 3.66419e-03
51 1.73656e-02 4.33635e-03 2.19340e-04 3.37620e-04 1.69217e-03 9.74684e-03 7.61537e-03 2.38812e-04 3.56400e-03
52 1.69129e-02 4.22312e-03 2.13605e-04 3.28792e-04 1.64792e-03 9.49196e-03 7.41160e-03 2.32409e-04 3.46843e-03
53 1.64807e-02 4.11501e-03 2.08130e-04 3.20363e-04 1.60567e-03 9.24858e-03 7.21704e-03 2.26294e-04 3.37716e-03
54 1.60677e-02 4.01168e-03 2.02897e-04 3.12306e-04 1.56529e-03 9.01598e-03 7.03109e-03 2.20450e-04 3.28993e-03
55 1.56726e-02 3.91285e-03 1.97891e-04 3.04600e-04 1.52666e-03 8.79349e-03 6.85324e-03 2.14861e-04 3.20650e-03
56 1.52944e-02 3.81824e-03 1.93099e-04 2.97223e-04 1.48969e-03 8.58051e-03 6.68298e-03 2.09510e-04 3.12663e-03
57 1.49321e-02 3.72760e-03 1.88509e-04 2.90155e-04 1.45426e-03 8.37646e-03 6.51987e-03 2.04383e-04 3.05011e-03
58 1.45847e-02 3.64071e-03 1.84107e-04 2.83379e-04 1.42030e-03 8.18082e-03 6.36350e-03 1.99468e-04 2.97675e-03
59 1.42515e-02 3.55733e-03 1.79884e-04 2.76877e-04 1.38771e-03 7.99311e-03 6.21346e-03 1.94752e-04 2.90636e-03
60 1.39315e-02 3.47729e-03 1.75830e-04 2.70635e-04 1.35642e-03 7.81289e-03 6.06942e-03 1.90224e-04 2.83877e-03
61 1.36241e-02 3.40038e-03 1.71934e-04 2.64638e-04 1.32636e-03 7.63974e-03 5.93102e-03 1.85874e-04 2.77384e-03
62 1.33286e-02 3.32644e-03 1.68189e-04 2.58872e-04 1.29746e-03 7.47326e-03 5.79797e-03 1.81692e-04 2.71141e-03
63 1.30443e-02 3.25531e-03 1.64586e-04 2.53325e-04 1.26965e-03 7.31311e-03 5.66998e-03 1.77668e-04 2.65136e-03
64 1.27707e-02 3.18685e-03 1.61117e-04 2.47985e-04 1.24289e-03 7.15894e-03 5.54678e-03 1.73795e-04 2.59354e-03
65 1.25071e-02 3.12090e-03 1.57777e-04 2.42842e-04 1.21711e-03 7.01045e-03 5.42811e-03 1.70064e-04 2.53786e-03
66 1.22531e-02 3.05735e-03 1.54557e-04 2.37885e-04 1.19226e-03 6.86735e-03 5.31375e-03 1.66469e-04 2.48419e-03
67 1.20082e-02 2.99607e-03 1.51453e-04 2.33105e-04 1.16831e-03 6.72935e-03 5.20348e-03 1.63002e-04 2.43245e-03
68 1.17720e-02 2.93694e-03 1.48458e-04 2.28494e-04 1.14519e-03 6.59621e-03 5.09709e-03 1.59657e-04 2.38252e-03
69 1.15439e-02 2.87987e-03 1.45566e-04 2.24042e-04 1.12288e-03 6.46769e-03 4.99440e-03 1.56428e-04 2.33432e-03
70 1.13237e-02 2.82475e-03 1.42774e-04 2.19743e-04 1.10133e-03 6.34356e-03 4.89522e-03 1.53310e-04 2.28777e-03
71 1.11109e-02 2.77149e-03 1.40075e-04 2.15589e-04 1.08050e-03 6.22361e-03 4.79939e-03 1.50296e-04 2.24279e-03
72 1.09051e-02 2.72001e-03 1.37467e-04 2.11573e-04 1.06037e-03 6.10766e-03 4.70674e-03 1.47383e-04 2.19931e-03
73 1.07062e-02 2.67021e-03 1.34944e-04 2.07688e-04 1.04090e-03 5.99550e-03 4.61714e-03 1.44566e-04 2.15725e-03
74 1.05137e-02 2.62202e-03 1.32502e-04 2.03929e-04 1.02206e-03 5.88697e-03 4.53044e-03 1.41839e-04 2.11655e-03
75 1.03273e-02 2.57538e-03 1.30139e-04 2.00290e-04 1.00382e-03 5.78191e-03 4.44651e-03 1.39200e-04 2.07715e-03
76 1.01468e-02 2.53020e-03 1.27849e-04 1.96766e-04 9.86155e-04 5.68015e-03 4.36522e-03 1.36643e-04 2.03900e-03
77 9.97196e-03 2.48643e-03 1.25632e-04 1.93351e-04 9.69038e-04 5.58156e-03 4.28647e-03 1.34166e-04 2.00202e-03
78 9.80248e-03 2.44401e-03 1.23482e-04 1.90041e-04 9.52447e-04 5.48600e-03 4.21013e-03 1.31765e-04 1.96619e-03
79 9.63815e-03 2.40287e-03 1.21397e-04 1.86831e-04 9.36359e-04 5.39333e-03 4.13612e-03 1.29437e-04 1.93144e-03
80 9.47875e-03 2.36296e-03 1.19375e-04 1.83718e-04 9.20752e-04 5.30343e-03 4.06432e-03 1.27179e-04 1.89773e-03
81 9.32407e-03 2.32424e-03 1.17412e-04 1.80696e-04 9.05606e-04 5.21619e-03 3.99464e-03 1.24987e-04 1.86501e-03
82 9.17392e-03 2.28664e-03 1.15507e-04 1.77763e-04 8.90903e-04 5.13150e-03 3.92700e-03 1.22860e-04 1.83325e-03
83 9.02811e-03 2.25014e-03 1.13657e-04 1.74914e-04 8.76624e-04 5.04925e-03 3.86132e-03 1.20793e-04 1.80241e-03
84 8.88647e-03 2.21467e-03 1.11859e-04 1.72146e-04 8.62751e-04 4.96935e-03 3.79751e-03 1.18786e-04 1.77244e-03
85 8.74883e-03 2.18020e-03 1.10113e-04 1.69457e-04 8.49270e-04 4.89169e-03 3.73550e-03 1.16835e-04 1.74332e-03
86 8.61503e-03 2.14670e-03 1.08414e-04 1.66842e-04 8.36164e-04 4.81620e-03 3.67522e-03 1.14939e-04 1.71501e-03
87 8.48493e-03 2.11412e-03 1.06763e-04 1.64300e-04 8.23419e-04 4.74279e-03 3.61661e-03 1.13094e-04 1.68748e-03
88 8.35838e-03 2.08243e-03 1.05156e-04 1.61826e-04 8.11020e-04 4.67137e-03 3.55959e-03 1.11300e-04 1.66070e-03
89 8.23524e-03 2.05159e-03 1.03593e-04 1.59419e-04 7.98955e-04 4.60188e-03 3.50410e-03 1.09554e-04 1.63464e-03
90 8.11539e-03 2.02157e-03 1.02072e-04 1.57076e-04 7.87211e-04 4.53423e-03 3.45010e-03 1.07855e-04 1.60927e-03
91 7.99870e-03 1.99234e-03 1.00590e-04 1.54795e-04 7.75777e-04 4.46836e-03 3.39752e-03 1.06200e-04 1.58457e-03
92 7.88506e-03 1.96388e-03 9.91470e-05 1.52573e-04 7.64639e-04 4.40421e-03 3.34631e-03 1.04589e-04 1.56052e-03
93 7.77435e-03 1.93615e-03 9.77411e-05 1.50409e-04 7.53789e-04 4.34172e-03 3.29642e-03 1.03019e-04 1.53708e-03
94 7.66648e-03 1.90913e-03 9.63711e-05 1.48299e-04 7.43215e-04 4.28081e-03 3.24781e-03 1.01489e-04 1.51424e-03
95 7.56134e-03 1.88279e-03 9.50356e-05 1.46243e-04 7.32908e-04 4.22144e-03 3.20042e-03 9.99972e-05 1.49198e-03
96 7.45882e-03 1.85710e-03 9.37335e-05 1.44238e-04 7.22858e-04 4.16355e-03 3.15422e-03 9.85429e-05 1.47027e-03
97 7.35885e-03 1.83206e-03 9.24635e-05 1.42282e-04 7.13056e-04 4.10709e-03 3.10916e-03 9.71246e-05 1.44910e-03
98 7.26134e-03 1.80762e-03 9.12246e-05 1.40375e-04 7.03493e-04 4.05201e-03 3.06520e-03 9.57409e-05 1.42844e-03
99 7.16619e-03 1.78378e-03 9.00156e-05 1.38513e-04 6.94162e-04 3.99826e-03 3.02231e-03 9.43907e-05 1.40829e-03
100 7.07333e-03 1.76051e-03 8.88357e-05 1.36696e-04 6.85055e-04 3.94580e-03 2.98045e-03 9.30728e-05 1.38861e-03
101 6.98268e-03 1.73780e-03 8.76837e-05 1.34922e-04 6.76163e-04 3.89458e-03 2.93959e-03 9.17862e-05 1.36941e-03
102 6.89416e-03 1.71562e-03 8.65588e-05 1.33190e-04 6.67481e-04 3.84457e-03 2.89968e-03 9.05298e-05 1.35065e-03
103 6.80772e-03 1.69395e-03 8.54600e-05 1.31498e-04 6.59000e-04 3.79572e-03 2.86071e-03 8.93027e-05 1.33233e-03
104 6.72328e-03 1.67279e-03 8.43866e-05 1.29846e-04 6.50714e-04 3.74800e-03 2.82264e-03 8.81038e-05 1.31444e-03
105 6.64077e-03 1.65210e-03 8.33376e-05 1.28230e-04 6.42618e-04 3.70136e-03 2.78543e-03 8.69323e-05 1.29695e-03
106 6.56013e-03 1.63189e-03 8.23124e-05 1.26652e-04 6.34705e-04 3.65578e-03 2.74907e-03 8.57872e-05 1.27985e-03
107 6.48131e-03 1.61213e-03 8.13101e-05 1.25108e-04 6.26968e-04 3.61122e-03 2.71353e-03 8.46678e-05 1.26314e-03
108 6.40424e-03 1.59281e-03 8.03301e-05 1.23599e-04 6.19404e-04 3.56764e-03 2.67878e-03 8.35732e-05 1.24680e-03
109 6.32888e-03 1.57392e-03 7.93717e-05 1.22123e-04 6.12005e-04 3.52503e-03 2.64479e-03 8.25027e-05 1.23082e-03
110 6.25517e-03 1.55544e-03 7.84341e-05 1.20680e-04 6.04768e-04 3.48334e-03 2.61154e-03 8.14555e-05 1.21519e-03
111 6.18306e-03 1.53736e-03 7.75167e-05 1.19267e-04 5.97687e-04 3.44255e-03 2.57902e-03 8.04310e-05 1.19989e-03
112 6.11249e-03 1.51966e-03 7.66190e-05 1.17885e-04 5.90758e-04 3.40264e-03 2.54719e-03 7.94283e-05 1.18493e-03
113 6.04343e-03 1.50234e-03 7.57403e-05 1.16532e-04 5.83975e-04 3.36357e-03 2.51604e-03 7.84469e-05 1.17027e-03
114 5.97584e-03 1.48539e-03 7.48801e-05 1.15207e-04 5.77335e-04 3.32532e-03 2.48554e-03 7.74861e-05 1.15593e-03
115 5.90965e-03 1.46879e-03 7.40379e-05 1.13910e-04 5.70833e-04 3.28787e-03 2.45568e-03 7.65454e-05 1.14189e-03
116 5.84485e-03 1.45254e-03 7.32130e-05 1.12640e-04 5.64466e-04 3.25120e-03 2.42644e-03 7.56240e-05 1.12813e-03
117 5.78137e-03 1.43662e-03 7.24050e-05 1.11395e-04 5.58229e-04 3.21527e-03 2.39781e-03 7.47216e-05 1.11466e-03
118 5.71920e-03 1.42102e-03 7.16135e-05 1.10176e-04 5.52119e-04 3.18007e-03 2.36975e-03 7.38375e-05 1.10146e-03
119 5.65828e-03 1.40574e-03 7.08379e-05 1.08982e-04 5.46131e-04 3.14559e-03 2.34226e-03 7.29712e-05 1.08853e-03
120 5.59859e-03 1.39076e-03 7.00778e-05 1.07812e-04 5.40264e-04 3.11179e-03 2.31532e-03 7.21222e-05 1.07586e-03
121 5.54009e-03 1.37608e-03 6.93327e-05 1.06664e-04 5.34512e-04 3.07866e-03 2.28892e-03 7.12900e-05 1.06343e-03
122 5.48275e-03 1.36169e-03 6.86023e-05 1.05539e-04 5.28874e-04 3.04618e-03 2.26304e-03 7.04741e-05 1.05125e-03
123 5.42653e-03 1.34758e-03 6.78862e-05 1.04436e-04 5.23345e-04 3.01433e-03 2.23766e-03 6.96742e-05 1.03931e-03
124 5.37140e-03 1.33375e-03 6.71838e-05 1.03355e-04 5.17923e-04 2.98310e-03 2.21277e-03 6.88897e-05 1.02760e-03
125 5.31734e-03 1.32018e-03 6.64950e-05 1.02294e-04 5.12605e-04 2.95247e-03 2.18837e-03 6.81202e-05 1.01611e-03
126 5.26431e-03 1.30687e-03 6.58192e-05 1.01253e-04 5.07388e-04 2.92242e-03 2.16443e-03 6.73654e-05 1.00484e-03
127 5.21229e-03 1.29381e-03 6.51562e-05 1.00232e-04 5.02270e-04 2.89294e-03 2.14094e-03 6.66249e-05 9.93786e-04
128 5.16126e-03 1.28100e-03 6.45057e-05 9.92304e-05 4.97248e-04 2.86401e-03 2.11789e-03 6.58982e-05 9.82937e-04
129 5.11117e-03 1.26843e-03 6.38672e-05 9.82471e-05 4.92318e-04 2.83562e-03 2.09528e-03 6.51850e-05 9.72289e-04
130 5.06202e-03 1.25609e-03 6.32405e-05 9.72820e-05 4.87480e-04 2.80775e-03 2.07308e-03 6.44849e-05 9.61838e-04
131 5.01378e-03 1.24397e-03 6.26253e-05 9.63345e-05 4.82730e-04 2.78039e-03 2.05129e-03 6.37977e-05 9.51578e-04
132 4.96642e-03 1.23208e-03 6.20212e-05 9.54042e-05 4.78067e-04 2.75352e-03 2.02990e-03 6.31230e-05 9.41504e-04
133 4.91992e-03 1.22040e-03 6.14281e-05 9.44906e-05 4.73487e-04 2.72715e-03 2.00889e-03 6.24604e-05 9.31612e-04
134 4.87425e-03 1.20893e-03 6.08455e-05 9.35934e-05 4.68990e-04 2.70124e-03 1.98826e-03 6.18096e-05 9.21897e-04
135 4.82941e-03 1.19767e-03 6.02733e-05 9.27122e-05 4.64572e-04 2.67579e-03 1.96800e-03 6.11705e-05 9.12354e-04
136 4.78536e-03 1.18660e-03 5.97112e-05 9.18465e-05 4.60232e-04 2.65079e-03 1.94810e-03 6.05425e-05 9.02979e-04
137 4.74209e-03 1.17573e-03 5.91590e-05 9.09959e-05 4.55968e-04 2.62623e-03 1.92855e-03 5.99256e-05 8.93769e-04
138 4.69958e-03 1.16505e-03 5.86163e-05 9.01601e-05 4.51778e-04 2.60210e-03 1.90934e-03 5.93194e-05 8.84718e-04
139 4.65781e-03 1.15455e-03 5.80830e-05 8.93387e-05 4.47660e-04 2.57838e-03 1.89046e-03 5.87237e-05 8.75823e-04
140 4.61676e-03 1.14424e-03 5.75588e-05 8.85314e-05 4.43613e-04 2.55507e-03 1.87190e-03 5.81381e-05 8.67081e-04
141 4.57642e-03 1.13410e-03 5.70436e-05 8.77378e-05 4.39635e-04 2.53215e-03 1.85366e-03 5.75625e-05 8.58487e-04
142 4.53676e-03 1.12413e-03 5.65370e-05 8.69576e-05 4.35724e-04 2.50962e-03 1.83574e-03 5.69966e-05 8.50038e-04
143 4.49777e-03 1.11433e-03 5.60390e-05 8.61905e-05 4.31878e-04 2.48747e-03 1.81811e-03 5.64402e-05 8.41731e-04
144 4.45944e-03 1.10470e-03 5.55492e-05 8.54361e-05 4.28097e-04 2.46569e-03 1.80078e-03 5.58931e-05 8.33563e-04
145 4.42175e-03 1.09522e-03 5.50676e-05 8.46943e-05 4.24377e-04 2.44426e-03 1.78373e-03 5.53550e-05 8.25529e-04
146 4.38469e-03 1.08590e-03 5.45938e-05 8.39646e-05 4.20719e-04 2.42319e-03 1.76697e-03 5.48258e-05 8.17627e-04
147 4.34824e-03 1.07673e-03 5.41278e-05 8.32468e-05 4.17121e-04 2.40247e-03 1.75048e-03 5.43052e-05 8.09854e-04
148 4.31238e-03 1.06772e-03 5.36694e-05 8.25406e-05 4.13581e-04 2.38207e-03 1.73426e-03 5.37930e-05 8.02207e-04
149 4.27711e-03 1.05884e-03 5.32183e-05 8.18459e-05 4.10098e-04 2.36201e-03 1.71830e-03 5.32891e-05 7.94683e-04
150 4.24240e-03 1.05011e-03 5.27745e-05 8.11622e-05 4.06670e-04 2.34227e-03 1.70260e-03 5.27932e-05 7.87279e-04
151 4.20826e-03 1.04152e-03 5.23377e-05 8.04893e-05 4.03297e-04 2.32284e-03 1.68715e-03 5.23052e-05 7.79992e-04
152 4.17466e-03 1.03307e-03 5.19078e-05 7.98271e-05 3.99977e-04 2.30371e-03 1.67195e-03 5.18249e-05 7.72821e-04
153 4.14159e-03 1.02475e-03 5.14846e-05 7.91753e-05 3.96710e-04 2.28489e-03 1.65698e-03 5.13521e-05 7.65762e-04
154 4.10904e-03 1.01656e-03 5.10680e-05 7.85336e-05 3.93493e-04 2.26636e-03 1.64225e-03 5.08867e-05 7.58813e-04
155 4.07701e-03 1.00850e-03 5.06579e-05 7.79018e-05 3.90325e-04 2.24812e-03 1.62774e-03 5.04285e-05 7.51971e-04
156 4.04547e-03 1.00056e-03 5.02541e-05 7.72798e-05 3.87207e-04 2.23015e-03 1.61347e-03 4.99773e-05 7.45234e-04
157 4.01442e-03 9.92742e-04 4.98564e-05 7.66672e-05 3.84136e-04 2.21246e-03 1.59941e-03 4.95330e-05 7.38601e-04
158 3.98384e-03 9.85045e-04 4.94648e-05 7.60640e-05 3.81112e-04 2.19504e-03 1.58556e-03 4.90955e-05 7.32068e-04
159 3.95374e-03 9.77464e-04 4.90791e-05 7.54698e-05 3.78133e-04 2.17788e-03 1.57193e-03 4.86645e-05 7.25633e-04
160 3.92409e-03 9.69998e-04 4.86992e-05 7.48846e-05 3.75199e-04 2.16098e-03 1.55850e-03 4.82400e-05 7.19295e-04
161 3.89489e-03 9.62644e-04 4.83250e-05 7.43080e-05 3.72308e-04 2.14433e-03 1.54527e-03 4.78219e-05 7.13051e-04
162 3.86613e-03 9.55399e-04 4.79563e-05 7.37400e-05 3.69461e-04 2.12793e-03 1.53223e-03 4.74099e-05 7.06900e-04
163 3.83779e-03 9.48262e-04 4.75930e-05 7.31804e-05 3.66655e-04 2.11177e-03 1.51940e-03 4.70040e-05 7.00839e-04
164 3.80988e-03 9.41229e-04 4.72350e-05 7.26289e-05 3.63890e-04 2.09584e-03 1.50675e-03 4.66040e-05 6.94867e-04
165 3.78238e-03 9.34300e-04 4.68823e-05 7.20855e-05 3.61166e-04 2.08015e-03 1.49428e-03 4.62099e-05 6.88981e-04
166 3.75528e-03 9.27471e-04 4.65346e-05 7.15499e-05 3.58481e-04 2.06468e-03 1.48200e-03 4.58214e-05 6.83180e-04
167 3.72858e-03 9.20741e-04 4.61920e-05 7.10220e-05 3.55834e-04 2.04944e-03 1.46989e-03 4.54385e-05 6.77463e-04
168 3.70226e-03 9.14108e-04 4.58542e-05 7.05017e-05 3.53225e-04 2.03441e-03 1.45796e-03 4.50611e-05 6.71827e-04
169 3.67632e-03 9.07569e-04 4.55212e-05 6.99887e-05 3.50653e-04 2.01959e-03 1.44620e-03 4.46891e-05 6.66272e-04
170 3.65076e-03 9.01123e-04 4.51930e-05 6.94829e-05 3.48118e-04 2.00499e-03 1.43460e-03 4.43223e-05 6.60794e-04
171 3.62556e-03 8.94769e-04 4.48693e-05 6.89843e-05 3.45618e-04 1.99059e-03 1.42317e-03 4.39606e-05 6.55394e-04
172 3.60071e-03 8.88503e-04 4.45502e-05 6.84926e-05 3.43153e-04 1.97639e-03 1.41190e-03 4.36040e-05 6.50069e-04
173 3.57622e-03 8.82325e-04 4.42355e-05 6.80077e-05 3.40722e-04 1.96239e-03 1.40078e-03 4.32523e-05 6.44817e-04
174 3.55207e-03 8.76233e-04 4.39251e-05 6.75295e-05 3.38324e-04 1.94857e-03 1.38982e-03 4.29054e-05 6.39638e-04
175 3.52826e-03 8.70225e-04 4.36190e-05 6.70579e-05 3.35959e-04 1.93495e-03 1.37902e-03 4.25634e-05 6.34530e-04
176 3.50477e-03 8.64300e-04 4.33171e-05 6.65927e-05 3.33627e-04 1.92152e-03 1.36836e-03 4.22260e-05 6.29491e-04
177 3.48161e-03 8.58455e-04 4.30192e-05 6.61338e-05 3.31326e-04 1.90826e-03 1.35784e-03 4.18931e-05 6.24521e-04
178 3.45877e-03 8.52690e-04 4.27254e-05 6.56811e-05 3.29056e-04 1.89519e-03 1.34747e-03 4.15648e-05 6.19617e-04
