#  SO LAT noise power spectra
#  goal sensitivity
#  fsky = 0.2 
#  polarization (EE or BB) 
#  units = uK^2 
#  columns: [ell] [27 GHz] [39 GHz] [93 GHz] [145 GHz] [225 GHz] [280 GHz] [27x39 GHz] [93x145 GHz] [225x280 GHz]
2 8.36950e-01 2.21364e-01 1.03918e-02 1.20520e-02 6.83221e-02 4.27013e-01 3.87282e-01 1.00693e-02 1.53683e-01
3 4.74532e-01 1.25508e-01 5.89188e-03 6.83319e-03 3.87369e-02 2.42106e-01 2.19533e-01 5.70783e-03 8.71158e-02
4 3.17291e-01 8.39195e-02 3.93953e-03 4.56892e-03 2.59009e-02 1.61881e-01 1.46754e-01 3.81555e-03 5.82348e-02
5 2.32222e-01 6.14194e-02 2.88327e-03 3.34391e-03 1.89564e-02 1.18478e-01 1.07378e-01 2.79179e-03 4.26097e-02
6 1.79961e-01 4.75969e-02 2.23438e-03 2.59135e-03 1.46902e-02 9.18136e-02 8.31892e-02 2.16287e-03 3.30107e-02
7 1.45075e-01 3.83698e-02 1.80122e-03 2.08898e-03 1.18423e-02 7.40142e-02 6.70417e-02 1.74303e-03 2.66030e-02
8 1.20379e-01 3.18379e-02 1.49458e-03 1.73335e-03 9.82625e-03 6.14140e-02 5.56110e-02 1.44583e-03 2.20669e-02
9 1.02115e-01 2.70074e-02 1.26781e-03 1.47035e-03 8.33533e-03 5.20958e-02 4.71576e-02 1.22604e-03 1.87123e-02
10 8.81440e-02 2.33121e-02 1.09433e-03 1.26916e-03 7.19478e-03 4.49674e-02 4.06908e-02 1.05790e-03 1.61461e-02
11 7.71636e-02 2.04078e-02 9.57992e-04 1.11104e-03 6.29839e-03 3.93649e-02 3.56084e-02 9.25750e-04 1.41292e-02
12 6.83415e-02 1.80744e-02 8.48450e-04 9.83994e-04 5.57818e-03 3.48636e-02 3.15250e-02 8.19578e-04 1.25088e-02
13 6.11223e-02 1.61649e-02 7.58810e-04 8.80033e-04 4.98883e-03 3.11802e-02 2.81835e-02 7.32696e-04 1.11827e-02
14 5.51226e-02 1.45780e-02 6.84311e-04 7.93632e-04 4.49903e-03 2.81189e-02 2.54065e-02 6.60490e-04 1.00807e-02
15 5.00698e-02 1.32416e-02 6.21569e-04 7.20865e-04 4.08652e-03 2.55408e-02 2.30677e-02 5.99678e-04 9.15251e-03
16 4.57652e-02 1.21030e-02 5.68118e-04 6.58875e-04 3.73510e-03 2.33444e-02 2.10752e-02 5.47872e-04 8.36181e-03
17 4.20611e-02 1.11232e-02 5.22122e-04 6.05530e-04 3.43269e-03 2.14543e-02 1.93607e-02 5.03291e-04 7.68139e-03
18 3.88452e-02 1.02726e-02 4.82189e-04 5.59217e-04 3.17015e-03 1.98134e-02 1.78722e-02 4.64587e-04 7.09067e-03
19 3.60313e-02 9.52832e-03 4.47247e-04 5.18692e-04 2.94041e-03 1.83776e-02 1.65697e-02 4.30719e-04 6.57376e-03
20 3.35516e-02 8.87242e-03 4.16454e-04 4.82980e-04 2.73796e-03 1.71122e-02 1.54219e-02 4.00874e-04 6.11825e-03
21 3.13526e-02 8.29076e-03 3.89147e-04 4.51310e-04 2.55843e-03 1.59901e-02 1.44040e-02 3.74407e-04 5.71429e-03
22 2.93913e-02 7.77198e-03 3.64791e-04 4.23062e-04 2.39829e-03 1.49893e-02 1.34962e-02 3.50801e-04 5.35400e-03
23 2.76329e-02 7.30685e-03 3.42955e-04 3.97737e-04 2.25472e-03 1.40920e-02 1.26822e-02 3.29636e-04 5.03096e-03
24 2.60488e-02 6.88784e-03 3.23283e-04 3.74922e-04 2.12539e-03 1.32837e-02 1.19490e-02 3.10569e-04 4.73996e-03
25 2.46157e-02 6.50873e-03 3.05485e-04 3.54280e-04 2.00837e-03 1.25523e-02 1.12856e-02 2.93318e-04 4.47667e-03
26 2.33138e-02 6.16435e-03 2.89316e-04 3.35528e-04 1.90207e-03 1.18879e-02 1.06830e-02 2.77647e-04 4.23749e-03
27 2.21267e-02 5.85036e-03 2.74575e-04 3.18431e-04 1.80514e-03 1.12821e-02 1.01335e-02 2.63359e-04 4.01941e-03
28 2.10407e-02 5.56308e-03 2.61087e-04 3.02789e-04 1.71647e-03 1.07279e-02 9.63082e-03 2.50287e-04 3.81989e-03
29 2.00440e-02 5.29942e-03 2.48708e-04 2.88432e-04 1.63508e-03 1.02192e-02 9.16944e-03 2.38288e-04 3.63676e-03
30 1.91265e-02 5.05671e-03 2.37313e-04 2.75216e-04 1.56016e-03 9.75096e-03 8.74473e-03 2.27244e-04 3.46819e-03
31 1.82796e-02 4.83267e-03 2.26794e-04 2.63016e-04 1.49100e-03 9.31872e-03 8.35269e-03 2.17048e-04 3.31258e-03
32 1.74958e-02 4.62532e-03 2.17059e-04 2.51726e-04 1.42699e-03 8.91869e-03 7.98987e-03 2.07613e-04 3.16857e-03
33 1.67687e-02 4.43297e-03 2.08028e-04 2.41251e-04 1.36762e-03 8.54757e-03 7.65329e-03 1.98860e-04 3.03497e-03
34 1.60926e-02 4.25412e-03 1.99631e-04 2.31512e-04 1.31240e-03 8.20250e-03 7.34032e-03 1.90720e-04 2.91074e-03
35 1.54627e-02 4.08746e-03 1.91806e-04 2.22437e-04 1.26096e-03 7.88095e-03 7.04870e-03 1.83136e-04 2.79498e-03
36 1.48745e-02 3.93185e-03 1.84499e-04 2.13963e-04 1.21292e-03 7.58071e-03 6.77642e-03 1.76055e-04 2.68690e-03
37 1.43243e-02 3.78629e-03 1.77664e-04 2.06036e-04 1.16798e-03 7.29985e-03 6.52171e-03 1.69430e-04 2.58579e-03
38 1.38086e-02 3.64987e-03 1.71259e-04 1.98607e-04 1.12587e-03 7.03663e-03 6.28300e-03 1.63221e-04 2.49103e-03
39 1.33246e-02 3.52180e-03 1.65246e-04 1.91633e-04 1.08633e-03 6.78952e-03 6.05891e-03 1.57393e-04 2.40207e-03
40 1.28694e-02 3.40138e-03 1.59591e-04 1.85075e-04 1.04915e-03 6.55717e-03 5.84820e-03 1.51913e-04 2.31842e-03
41 1.24408e-02 3.28798e-03 1.54266e-04 1.78899e-04 1.01414e-03 6.33835e-03 5.64977e-03 1.46751e-04 2.23965e-03
42 1.20365e-02 3.18102e-03 1.49244e-04 1.73074e-04 9.81121e-04 6.13197e-03 5.46263e-03 1.41884e-04 2.16535e-03
43 1.16548e-02 3.08001e-03 1.44501e-04 1.67573e-04 9.49935e-04 5.93706e-03 5.28589e-03 1.37286e-04 2.09518e-03
44 1.12938e-02 2.98449e-03 1.40016e-04 1.62371e-04 9.20443e-04 5.75273e-03 5.11874e-03 1.32939e-04 2.02883e-03
45 1.09519e-02 2.89404e-03 1.35768e-04 1.57445e-04 8.92516e-04 5.57819e-03 4.96048e-03 1.28822e-04 1.96599e-03
46 1.06278e-02 2.80829e-03 1.31741e-04 1.52774e-04 8.66040e-04 5.41272e-03 4.81044e-03 1.24919e-04 1.90642e-03
47 1.03202e-02 2.72690e-03 1.27919e-04 1.48342e-04 8.40911e-04 5.25566e-03 4.66803e-03 1.21214e-04 1.84988e-03
48 1.00280e-02 2.64956e-03 1.24288e-04 1.44129e-04 8.17032e-04 5.10642e-03 4.53272e-03 1.17694e-04 1.79615e-03
49 9.74998e-03 2.57600e-03 1.20833e-04 1.40123e-04 7.94319e-04 4.96446e-03 4.40401e-03 1.14346e-04 1.74505e-03
50 9.48528e-03 2.50596e-03 1.17544e-04 1.36308e-04 7.72691e-04 4.82928e-03 4.28146e-03 1.11158e-04 1.69638e-03
51 9.23300e-03 2.43920e-03 1.14409e-04 1.32671e-04 7.52077e-04 4.70044e-03 4.16465e-03 1.08119e-04 1.65000e-03
52 8.99233e-03 2.37551e-03 1.11418e-04 1.29202e-04 7.32410e-04 4.57753e-03 4.05322e-03 1.05220e-04 1.60575e-03
53 8.76253e-03 2.31469e-03 1.08562e-04 1.25890e-04 7.13631e-04 4.46016e-03 3.94682e-03 1.02452e-04 1.56350e-03
54 8.54291e-03 2.25657e-03 1.05832e-04 1.22724e-04 6.95684e-04 4.34799e-03 3.84513e-03 9.98059e-05 1.52312e-03
55 8.33285e-03 2.20098e-03 1.03221e-04 1.19696e-04 6.78516e-04 4.24069e-03 3.74786e-03 9.72752e-05 1.48449e-03
56 8.13177e-03 2.14776e-03 1.00722e-04 1.16797e-04 6.62082e-04 4.13798e-03 3.65476e-03 9.48526e-05 1.44751e-03
57 7.93914e-03 2.09678e-03 9.83270e-05 1.14019e-04 6.46338e-04 4.03957e-03 3.56556e-03 9.25317e-05 1.41209e-03
58 7.75446e-03 2.04790e-03 9.60312e-05 1.11357e-04 6.31242e-04 3.94523e-03 3.48004e-03 9.03064e-05 1.37812e-03
59 7.57727e-03 2.00100e-03 9.38285e-05 1.08802e-04 6.16759e-04 3.85470e-03 3.39799e-03 8.81714e-05 1.34554e-03
60 7.40715e-03 1.95597e-03 9.17136e-05 1.06349e-04 6.02853e-04 3.76779e-03 3.31921e-03 8.61215e-05 1.31425e-03
61 7.24372e-03 1.91271e-03 8.96816e-05 1.03992e-04 5.89492e-04 3.68429e-03 3.24353e-03 8.41519e-05 1.28419e-03
62 7.08660e-03 1.87112e-03 8.77281e-05 1.01726e-04 5.76647e-04 3.60400e-03 3.17077e-03 8.22584e-05 1.25528e-03
63 6.93545e-03 1.83111e-03 8.58487e-05 9.95466e-05 5.64290e-04 3.52677e-03 3.10077e-03 8.04368e-05 1.22748e-03
64 6.78996e-03 1.79260e-03 8.40397e-05 9.74483e-05 5.52394e-04 3.45242e-03 3.03339e-03 7.86833e-05 1.20071e-03
65 6.64984e-03 1.75551e-03 8.22972e-05 9.54272e-05 5.40937e-04 3.38081e-03 2.96850e-03 7.69943e-05 1.17493e-03
66 6.51480e-03 1.71976e-03 8.06179e-05 9.34795e-05 5.29895e-04 3.31180e-03 2.90596e-03 7.53666e-05 1.15009e-03
67 6.38459e-03 1.68529e-03 7.89985e-05 9.16012e-05 5.19247e-04 3.24525e-03 2.84565e-03 7.37970e-05 1.12613e-03
68 6.25897e-03 1.65203e-03 7.74362e-05 8.97891e-05 5.08974e-04 3.18104e-03 2.78747e-03 7.22826e-05 1.10302e-03
69 6.13772e-03 1.61993e-03 7.59280e-05 8.80399e-05 4.99057e-04 3.11906e-03 2.73131e-03 7.08208e-05 1.08070e-03
70 6.02062e-03 1.58892e-03 7.44715e-05 8.63504e-05 4.89479e-04 3.05920e-03 2.67707e-03 6.94089e-05 1.05915e-03
71 5.90747e-03 1.55896e-03 7.30640e-05 8.47179e-05 4.80224e-04 3.00136e-03 2.62466e-03 6.80447e-05 1.03833e-03
72 5.79809e-03 1.53000e-03 7.17033e-05 8.31397e-05 4.71277e-04 2.94544e-03 2.57400e-03 6.67258e-05 1.01820e-03
73 5.69230e-03 1.50199e-03 7.03872e-05 8.16132e-05 4.62623e-04 2.89135e-03 2.52500e-03 6.54501e-05 9.98728e-04
74 5.58994e-03 1.47489e-03 6.91138e-05 8.01361e-05 4.54249e-04 2.83901e-03 2.47758e-03 6.42157e-05 9.79886e-04
75 5.49086e-03 1.44865e-03 6.78809e-05 7.87061e-05 4.46142e-04 2.78834e-03 2.43168e-03 6.30207e-05 9.61646e-04
76 5.39490e-03 1.42324e-03 6.66869e-05 7.73211e-05 4.38291e-04 2.73927e-03 2.38723e-03 6.18634e-05 9.43980e-04
77 5.30193e-03 1.39862e-03 6.55300e-05 7.59793e-05 4.30684e-04 2.69173e-03 2.34416e-03 6.07420e-05 9.26863e-04
78 5.21182e-03 1.37475e-03 6.44087e-05 7.46786e-05 4.23310e-04 2.64564e-03 2.30242e-03 5.96550e-05 9.10272e-04
79 5.12445e-03 1.35161e-03 6.33213e-05 7.34173e-05 4.16159e-04 2.60095e-03 2.26194e-03 5.86010e-05 8.94184e-04
80 5.03970e-03 1.32917e-03 6.22665e-05 7.21938e-05 4.09223e-04 2.55760e-03 2.22267e-03 5.75785e-05 8.78577e-04
81 4.95746e-03 1.30738e-03 6.12428e-05 7.10064e-05 4.02492e-04 2.51552e-03 2.18457e-03 5.65863e-05 8.63431e-04
82 4.87763e-03 1.28624e-03 6.02491e-05 6.98537e-05 3.95957e-04 2.47468e-03 2.14758e-03 5.56230e-05 8.48727e-04
83 4.80010e-03 1.26570e-03 5.92840e-05 6.87343e-05 3.89610e-04 2.43502e-03 2.11166e-03 5.46875e-05 8.34448e-04
84 4.72480e-03 1.24575e-03 5.83464e-05 6.76468e-05 3.83445e-04 2.39648e-03 2.07676e-03 5.37787e-05 8.20576e-04
85 4.65161e-03 1.22637e-03 5.74352e-05 6.65899e-05 3.77453e-04 2.35903e-03 2.04285e-03 5.28955e-05 8.07094e-04
86 4.58048e-03 1.20752e-03 5.65495e-05 6.55624e-05 3.71628e-04 2.32263e-03 2.00989e-03 5.20369e-05 7.93988e-04
87 4.51130e-03 1.18919e-03 5.56881e-05 6.45633e-05 3.65964e-04 2.28722e-03 1.97783e-03 5.12019e-05 7.81242e-04
88 4.44401e-03 1.17136e-03 5.48501e-05 6.35913e-05 3.60453e-04 2.25278e-03 1.94665e-03 5.03897e-05 7.68844e-04
89 4.37854e-03 1.15402e-03 5.40347e-05 6.26454e-05 3.55091e-04 2.21927e-03 1.91631e-03 4.95992e-05 7.56778e-04
90 4.31482e-03 1.13713e-03 5.32410e-05 6.17248e-05 3.49872e-04 2.18665e-03 1.88677e-03 4.88299e-05 7.45034e-04
91 4.25278e-03 1.12069e-03 5.24682e-05 6.08283e-05 3.44790e-04 2.15488e-03 1.85802e-03 4.80808e-05 7.33599e-04
92 4.19236e-03 1.10468e-03 5.17155e-05 5.99552e-05 3.39840e-04 2.12395e-03 1.83001e-03 4.73511e-05 7.22462e-04
93 4.13350e-03 1.08908e-03 5.09823e-05 5.91046e-05 3.35017e-04 2.09381e-03 1.80273e-03 4.66403e-05 7.11612e-04
94 4.07615e-03 1.07388e-03 5.02676e-05 5.82757e-05 3.30318e-04 2.06443e-03 1.77614e-03 4.59476e-05 7.01038e-04
95 4.02024e-03 1.05907e-03 4.95711e-05 5.74677e-05 3.25737e-04 2.03580e-03 1.75023e-03 4.52724e-05 6.90730e-04
96 3.96574e-03 1.04462e-03 4.88919e-05 5.66798e-05 3.21270e-04 2.00788e-03 1.72496e-03 4.46140e-05 6.80680e-04
97 3.91259e-03 1.03053e-03 4.82294e-05 5.59114e-05 3.16914e-04 1.98066e-03 1.70032e-03 4.39718e-05 6.70878e-04
98 3.86074e-03 1.01679e-03 4.75832e-05 5.51617e-05 3.12664e-04 1.95409e-03 1.67628e-03 4.33454e-05 6.61315e-04
99 3.81015e-03 1.00338e-03 4.69526e-05 5.44302e-05 3.08517e-04 1.92817e-03 1.65283e-03 4.27341e-05 6.51984e-04
100 3.76077e-03 9.90289e-04 4.63371e-05 5.37162e-05 3.04469e-04 1.90287e-03 1.62994e-03 4.21374e-05 6.42876e-04
101 3.71258e-03 9.77511e-04 4.57362e-05 5.30192e-05 3.00517e-04 1.87818e-03 1.60759e-03 4.15550e-05 6.33984e-04
102 3.66552e-03 9.65034e-04 4.51495e-05 5.23385e-05 2.96658e-04 1.85406e-03 1.58576e-03 4.09861e-05 6.25302e-04
103 3.61956e-03 9.52847e-04 4.45764e-05 5.16737e-05 2.92889e-04 1.83050e-03 1.56445e-03 4.04306e-05 6.16821e-04
104 3.57466e-03 9.40942e-04 4.40165e-05 5.10242e-05 2.89206e-04 1.80748e-03 1.54363e-03 3.98878e-05 6.08535e-04
105 3.53079e-03 9.29309e-04 4.34693e-05 5.03895e-05 2.85608e-04 1.78499e-03 1.52328e-03 3.93574e-05 6.00438e-04
106 3.48792e-03 9.17939e-04 4.29346e-05 4.97691e-05 2.82091e-04 1.76301e-03 1.50340e-03 3.88390e-05 5.92525e-04
107 3.44601e-03 9.06825e-04 4.24118e-05 4.91626e-05 2.78653e-04 1.74152e-03 1.48396e-03 3.83322e-05 5.84788e-04
108 3.40503e-03 8.95958e-04 4.19006e-05 4.85696e-05 2.75291e-04 1.72051e-03 1.46496e-03 3.78366e-05 5.77224e-04
109 3.36497e-03 8.85330e-04 4.14006e-05 4.79897e-05 2.72002e-04 1.69996e-03 1.44637e-03 3.73520e-05 5.69825e-04
110 3.32577e-03 8.74934e-04 4.09116e-05 4.74223e-05 2.68786e-04 1.67985e-03 1.42819e-03 3.68779e-05 5.62588e-04
111 3.28743e-03 8.64763e-04 4.04331e-05 4.68672e-05 2.65639e-04 1.66018e-03 1.41040e-03 3.64140e-05 5.55506e-04
112 3.24991e-03 8.54810e-04 3.99649e-05 4.63240e-05 2.62559e-04 1.64093e-03 1.39299e-03 3.59601e-05 5.48577e-04
113 3.21320e-03 8.45069e-04 3.95065e-05 4.57923e-05 2.59545e-04 1.62209e-03 1.37596e-03 3.55158e-05 5.41794e-04
114 3.17726e-03 8.35533e-04 3.90578e-05 4.52718e-05 2.56593e-04 1.60365e-03 1.35928e-03 3.50808e-05 5.35154e-04
115 3.14207e-03 8.26196e-04 3.86185e-05 4.47621e-05 2.53704e-04 1.58559e-03 1.34295e-03 3.46549e-05 5.28652e-04
116 3.10761e-03 8.17052e-04 3.81883e-05 4.42629e-05 2.50874e-04 1.56790e-03 1.32696e-03 3.42378e-05 5.22284e-04
117 3.07386e-03 8.08096e-04 3.77668e-05 4.37740e-05 2.48102e-04 1.55057e-03 1.31130e-03 3.38292e-05 5.16047e-04
118 3.04081e-03 7.99323e-04 3.73540e-05 4.32950e-05 2.45386e-04 1.53360e-03 1.29596e-03 3.34289e-05 5.09937e-04
119 3.00842e-03 7.90727e-04 3.69494e-05 4.28257e-05 2.42725e-04 1.51697e-03 1.28092e-03 3.30367e-05 5.03949e-04
120 2.97668e-03 7.82303e-04 3.65529e-05 4.23657e-05 2.40117e-04 1.50067e-03 1.26619e-03 3.26523e-05 4.98081e-04
121 2.94558e-03 7.74046e-04 3.61643e-05 4.19148e-05 2.37561e-04 1.48469e-03 1.25175e-03 3.22756e-05 4.92329e-04
122 2.91509e-03 7.65952e-04 3.57833e-05 4.14728e-05 2.35055e-04 1.46903e-03 1.23760e-03 3.19062e-05 4.86691e-04
123 2.88520e-03 7.58016e-04 3.54098e-05 4.10394e-05 2.32598e-04 1.45367e-03 1.22372e-03 3.15440e-05 4.81162e-04
124 2.85589e-03 7.50234e-04 3.50434e-05 4.06144e-05 2.30188e-04 1.43861e-03 1.21011e-03 3.11889e-05 4.75740e-04
125 2.82714e-03 7.42602e-04 3.46841e-05 4.01975e-05 2.27825e-04 1.42384e-03 1.19676e-03 3.08405e-05 4.70422e-04
126 2.79895e-03 7.35115e-04 3.43316e-05 3.97886e-05 2.25506e-04 1.40935e-03 1.18367e-03 3.04988e-05 4.65205e-04
127 2.77129e-03 7.27770e-04 3.39858e-05 3.93874e-05 2.23231e-04 1.39513e-03 1.17083e-03 3.01635e-05 4.60086e-04
128 2.74416e-03 7.20563e-04 3.36465e-05 3.89936e-05 2.20999e-04 1.38118e-03 1.15822e-03 2.98345e-05 4.55063e-04
129 2.71753e-03 7.13490e-04 3.33134e-05 3.86072e-05 2.18808e-04 1.36748e-03 1.14586e-03 2.95116e-05 4.50134e-04
130 2.69140e-03 7.06549e-04 3.29866e-05 3.82280e-05 2.16658e-04 1.35404e-03 1.13372e-03 2.91947e-05 4.45295e-04
131 2.66575e-03 6.99734e-04 3.26657e-05 3.78556e-05 2.14547e-04 1.34085e-03 1.12180e-03 2.88835e-05 4.40545e-04
132 2.64056e-03 6.93044e-04 3.23506e-05 3.74901e-05 2.12474e-04 1.32790e-03 1.11010e-03 2.85781e-05 4.35882e-04
133 2.61584e-03 6.86475e-04 3.20412e-05 3.71311e-05 2.10439e-04 1.31517e-03 1.09861e-03 2.82781e-05 4.31302e-04
134 2.59156e-03 6.80024e-04 3.17373e-05 3.67785e-05 2.08440e-04 1.30268e-03 1.08733e-03 2.79835e-05 4.26804e-04
135 2.56772e-03 6.73687e-04 3.14389e-05 3.64322e-05 2.06476e-04 1.29041e-03 1.07625e-03 2.76941e-05 4.22386e-04
136 2.54430e-03 6.67463e-04 3.11457e-05 3.60920e-05 2.04548e-04 1.27835e-03 1.06537e-03 2.74098e-05 4.18046e-04
137 2.52129e-03 6.61349e-04 3.08576e-05 3.57578e-05 2.02652e-04 1.26651e-03 1.05467e-03 2.71305e-05 4.13782e-04
138 2.49869e-03 6.55340e-04 3.05745e-05 3.54294e-05 2.00790e-04 1.25487e-03 1.04417e-03 2.68560e-05 4.09592e-04
139 2.47648e-03 6.49436e-04 3.02964e-05 3.51066e-05 1.98960e-04 1.24343e-03 1.03384e-03 2.65863e-05 4.05474e-04
140 2.45466e-03 6.43634e-04 3.00230e-05 3.47893e-05 1.97161e-04 1.23219e-03 1.02370e-03 2.63212e-05 4.01426e-04
141 2.43321e-03 6.37930e-04 2.97542e-05 3.44775e-05 1.95393e-04 1.22114e-03 1.01372e-03 2.60606e-05 3.97448e-04
142 2.41212e-03 6.32324e-04 2.94900e-05 3.41709e-05 1.93655e-04 1.21027e-03 1.00392e-03 2.58044e-05 3.93536e-04
143 2.39139e-03 6.26811e-04 2.92302e-05 3.38695e-05 1.91946e-04 1.19959e-03 9.94278e-04 2.55525e-05 3.89690e-04
144 2.37101e-03 6.21391e-04 2.89748e-05 3.35730e-05 1.90265e-04 1.18909e-03 9.84800e-04 2.53048e-05 3.85909e-04
145 2.35098e-03 6.16061e-04 2.87235e-05 3.32815e-05 1.88612e-04 1.17875e-03 9.75479e-04 2.50612e-05 3.82189e-04
146 2.33127e-03 6.10819e-04 2.84764e-05 3.29948e-05 1.86986e-04 1.16859e-03 9.66312e-04 2.48216e-05 3.78531e-04
147 2.31189e-03 6.05662e-04 2.82333e-05 3.27127e-05 1.85387e-04 1.15860e-03 9.57295e-04 2.45859e-05 3.74932e-04
148 2.29282e-03 6.00590e-04 2.79942e-05 3.24352e-05 1.83814e-04 1.14876e-03 9.48424e-04 2.43540e-05 3.71392e-04
149 2.27407e-03 5.95599e-04 2.77589e-05 3.21622e-05 1.82266e-04 1.13909e-03 9.39698e-04 2.41259e-05 3.67909e-04
150 2.25562e-03 5.90689e-04 2.75274e-05 3.18935e-05 1.80742e-04 1.12957e-03 9.31111e-04 2.39014e-05 3.64481e-04
151 2.23746e-03 5.85857e-04 2.72996e-05 3.16291e-05 1.79243e-04 1.12020e-03 9.22661e-04 2.36805e-05 3.61108e-04
152 2.21960e-03 5.81102e-04 2.70753e-05 3.13689e-05 1.77768e-04 1.11097e-03 9.14346e-04 2.34630e-05 3.57788e-04
153 2.20202e-03 5.76422e-04 2.68546e-05 3.11128e-05 1.76315e-04 1.10190e-03 9.06161e-04 2.32490e-05 3.54519e-04
154 2.18471e-03 5.71815e-04 2.66373e-05 3.08606e-05 1.74886e-04 1.09296e-03 8.98104e-04 2.30382e-05 3.51302e-04
155 2.16768e-03 5.67279e-04 2.64234e-05 3.06123e-05 1.73478e-04 1.08416e-03 8.90173e-04 2.28308e-05 3.48135e-04
156 2.15091e-03 5.62814e-04 2.62128e-05 3.03679e-05 1.72092e-04 1.07550e-03 8.82364e-04 2.26265e-05 3.45016e-04
157 2.13440e-03 5.58417e-04 2.60054e-05 3.01272e-05 1.70727e-04 1.06697e-03 8.74675e-04 2.24254e-05 3.41945e-04
158 2.11815e-03 5.54088e-04 2.58011e-05 2.98901e-05 1.69383e-04 1.05857e-03 8.67103e-04 2.22273e-05 3.38920e-04
159 2.10214e-03 5.49824e-04 2.55999e-05 2.96567e-05 1.68059e-04 1.05029e-03 8.59647e-04 2.20322e-05 3.35941e-04
160 2.08638e-03 5.45624e-04 2.54017e-05 2.94267e-05 1.66755e-04 1.04214e-03 8.52302e-04 2.18400e-05 3.33007e-04
161 2.07085e-03 5.41487e-04 2.52065e-05 2.92001e-05 1.65470e-04 1.03411e-03 8.45068e-04 2.16507e-05 3.30116e-04
162 2.05556e-03 5.37412e-04 2.50142e-05 2.89769e-05 1.64205e-04 1.02620e-03 8.37941e-04 2.14642e-05 3.27268e-04
163 2.04049e-03 5.33397e-04 2.48247e-05 2.87570e-05 1.62958e-04 1.01841e-03 8.30920e-04 2.12804e-05 3.24462e-04
164 2.02565e-03 5.29441e-04 2.46380e-05 2.85403e-05 1.61729e-04 1.01073e-03 8.24002e-04 2.10993e-05 3.21697e-04
165 2.01103e-03 5.25544e-04 2.44540e-05 2.83268e-05 1.60518e-04 1.00316e-03 8.17185e-04 2.09209e-05 3.18973e-04
166 1.99662e-03 5.21702e-04 2.42727e-05 2.81163e-05 1.59325e-04 9.95699e-04 8.10467e-04 2.07450e-05 3.16287e-04
167 1.98242e-03 5.17917e-04 2.40940e-05 2.79089e-05 1.58148e-04 9.88347e-04 8.03846e-04 2.05717e-05 3.13640e-04
168 1.96843e-03 5.14186e-04 2.39178e-05 2.77044e-05 1.56989e-04 9.81100e-04 7.97321e-04 2.04008e-05 3.11031e-04
169 1.95464e-03 5.10508e-04 2.37441e-05 2.75028e-05 1.55846e-04 9.73956e-04 7.90888e-04 2.02324e-05 3.08459e-04
170 1.94105e-03 5.06882e-04 2.35729e-05 2.73041e-05 1.54719e-04 9.66912e-04 7.84547e-04 2.00663e-05 3.05923e-04
171 1.92765e-03 5.03307e-04 2.34041e-05 2.71081e-05 1.53608e-04 9.59967e-04 7.78295e-04 1.99026e-05 3.03423e-04
172 1.91444e-03 4.99783e-04 2.32376e-05 2.69149e-05 1.52512e-04 9.53119e-04 7.72131e-04 1.97411e-05 3.00958e-04
173 1.90142e-03 4.96308e-04 2.30734e-05 2.67244e-05 1.51432e-04 9.46366e-04 7.66053e-04 1.95819e-05 2.98526e-04
174 1.88858e-03 4.92881e-04 2.29116e-05 2.65364e-05 1.50366e-04 9.39706e-04 7.60060e-04 1.94249e-05 2.96129e-04
175 1.87592e-03 4.89502e-04 2.27519e-05 2.63511e-05 1.49315e-04 9.33137e-04 7.54149e-04 1.92700e-05 2.93764e-04
176 1.86343e-03 4.86169e-04 2.25944e-05 2.61683e-05 1.48279e-04 9.26658e-04 7.48319e-04 1.91172e-05 2.91431e-04
177 1.85112e-03 4.82881e-04 2.24390e-05 2.59880e-05 1.47256e-04 9.20267e-04 7.42569e-04 1.89665e-05 2.89130e-04
178 1.83897e-03 4.79638e-04 2.22858e-05 2.58101e-05 1.46247e-04 9.13961e-04 7.36897e-04 1.88179e-05 2.86860e-04
